Time(s),Speed(km/h)
1,0.0
2,0.0
3,0.0
4,0.0
5,0.0
6,0.0
7,0.0
8,0.0
9,0.0
10,0.0
11,0.0
12,0.0
13,0.0
14,0.0
15,1.0024
16,3.8355
17,7.9007
18,12.8364
19,17.5137
20,20.4831
21,22.353
22,24.5228
23,27.4339
24,28.5175
25,29.0083
26,28.4924
27,28.7538
28,30.2541
29,31.903
30,33.3713
31,33.1937
32,33.5051
33,36.064
34,39.3341
35,40.5716
36,40.5815
37,39.8692
38,36.9068
39,34.8549
40,30.695
41,25.0774
42,19.0834
43,10.0025
44,3.2199
45,1.2455
46,0.9119
47,0.5895
48,0.2965
49,0.0753
50,0.0
51,0.0
52,1.5747
53,5.8976
54,12.3746
55,18.6691
56,21.6589
57,25.6041
58,30.0319
59,35.3083
60,42.2194
61,44.1521
62,45.6374
63,46.8296
64,47.6676
65,47.8272
66,47.1915
67,48.6138
68,50.3538
69,52.1458
70,53.8781
71,55.5081
72,56.5935
73,55.7397
74,54.9755
75,54.1415
76,53.2244
77,51.2577
78,47.8181
79,41.9151
80,35.2198
81,31.1453
82,30.5566
83,32.9285
84,35.6001
85,38.7298
86,41.9656
87,46.3798
88,49.4963
89,50.5442
90,50.8444
91,50.1348
92,47.3348
93,46.6315
94,45.871
95,45.1984
96,45.8205
97,46.5312
98,45.7909
99,45.1128
100,44.4044
101,45.51600000000001
102,47.2788
103,49.8727
104,52.33
105,53.9477
106,53.2193
107,52.1332
108,49.3042
109,45.1366
110,42.065
111,38.8085
112,36.6109
113,36.3031
114,38.3443
115,37.9186
116,39.3883
117,40.844
118,40.9862
119,41.8746
120,44.0585
121,47.5897
122,51.0303
123,55.6776
124,60.1019
125,63.7825
126,67.2626
127,70.0923
128,73.3172
129,77.0874
130,78.8458
131,80.1451
132,80.984
133,80.0929
134,78.7145
135,77.5272
136,76.4078
137,77.2898
138,78.1696
139,79.1505
140,80.6416
141,81.7743
142,83.2969
143,84.6222
144,84.0907
145,82.0112
146,79.812
147,78.4724
148,77.7432
149,78.9498
150,81.2238
151,83.0643
152,85.4221
153,88.0244
154,89.7019
155,91.6434
156,94.0202
157,95.78
158,97.6588
159,99.6057
160,101.2983
161,102.7704
162,102.8224
163,101.318
164,98.0564
165,94.3956
166,92.7805
167,91.4807
168,92.2809
169,93.1454
170,94.7558
171,96.3045
172,97.407
173,98.2776
174,99.396
175,100.5772
176,101.3562
177,101.9885
178,102.4824
179,103.046
180,103.6472
181,104.3437
182,104.8696
183,105.0917
184,105.2658
185,105.4498
186,105.7879
187,106.3489
188,107.0047
189,107.7568
190,108.4958
191,109.4206
192,110.1155
193,110.5827
194,110.7179
195,110.7456
196,110.6667
197,110.6794
198,110.8308
199,110.9937
200,111.1816
201,111.3726
202,111.5767
203,111.763
204,111.9325
205,112.1591
206,112.5191
207,112.8852
208,113.4234
209,113.9079
210,114.2992
211,114.7845
212,114.857
213,114.8656
214,114.7947
215,114.5952
216,114.0938
217,113.4212
218,112.8547
219,112.2711
220,112.2543
221,112.2742
222,112.3946
223,112.4125
224,112.0929
225,111.8124
226,111.5925
227,110.771
228,110.338
229,109.7345
230,109.1893
231,108.7598
232,108.2841
233,107.8574
234,107.4934
235,107.0945
236,106.7527
237,106.3741
238,106.1303
239,106.0203
240,105.9418
241,106.0534
242,106.4797
243,107.597
244,109.0291
245,111.1258
246,112.969
247,114.9586
248,117.1782
249,119.1265
250,121.6146
251,123.427
252,124.7675
253,125.5888
254,126.3496
255,126.8511
256,127.5216
257,127.9289
258,128.1964
259,128.2814
260,128.3548
261,128.3852
262,128.4149
263,128.4474
264,128.4761
265,128.5055
266,128.5323
267,127.7763
268,125.8478
269,124.0821
270,121.8584
271,120.1986
272,119.4594
273,119.141
274,119.1175
275,119.2601
276,119.4777
277,119.7034
278,119.9314
279,120.1333
280,120.3255
281,120.243
282,120.1162
283,119.9933
284,119.8923
285,120.0424
286,120.3701
287,120.7954
288,121.566
289,122.7011
290,123.7124
291,124.8127
292,125.7273
293,126.5702
294,127.466
295,128.1316
296,128.882
297,129.5551
298,130.22
299,130.7355
300,131.0871
301,131.3385
302,131.5478
303,131.4326
304,130.9506
305,130.486
306,130.1121
307,129.8359
308,129.5148
309,129.2025
310,128.9429
311,128.6959
312,128.4977
313,128.2793
314,128.0578
315,127.8158
316,127.5347
317,127.1787
318,126.5155
319,125.9671
320,125.4485
321,124.9492
322,124.509
323,124.0512
324,123.8757
325,123.6975
326,123.279
327,123.1975
328,123.1972
329,123.3264
330,123.4998
331,123.6556
332,123.8276
333,123.9786
334,124.1378
335,124.296
336,124.4478
337,124.5468
338,124.6342
339,124.7271
340,124.8192
341,124.9104
342,124.9804
343,124.8816
344,124.3177
345,122.6848
346,121.0964
347,119.6628
348,119.3991
349,119.6223
350,120.1141
351,120.4593
352,120.7392
353,121.0442
354,121.3407
355,121.7494
356,122.1999
357,122.5758
358,122.9585
359,123.3329
360,123.739
361,124.0944
362,124.4779
363,124.8488
364,125.1753
365,125.5269
366,125.878
367,126.1817
368,126.4593
369,126.5337
370,126.5786
371,126.6194
372,126.6625
373,126.6977
374,126.7362
375,126.7742
376,126.8136
377,126.8491
378,126.8851
379,126.923
380,126.9539
381,126.9864
382,127.0201
383,127.0499
384,127.0824
385,127.1089
386,127.141
387,126.9542
388,126.761
389,126.5109
390,126.3201
391,126.0785
392,125.8701
393,125.7008
394,125.566
395,125.5536
396,125.678
397,125.8039
398,125.9212
399,126.0423
400,126.1529
401,126.2674
402,126.3772
403,126.475
404,126.6004
405,126.7602
406,126.9211
407,127.154
408,127.3999
409,127.6449
410,127.867
411,128.0994
412,128.3269
413,128.5272
414,128.5988
415,128.5869
416,128.5873
417,128.6342
418,128.6744
419,128.6744
420,128.6438
421,128.6768
422,128.8343
423,128.9709
424,129.1056
425,129.0839
426,129.1064
427,129.1297
428,129.1688
429,129.2591
430,129.3386
431,129.4351
432,129.5659
433,129.6951
434,129.8402
435,130.1128
436,130.3964
437,130.6526
438,130.9019
439,131.1587
440,131.3913
441,131.399
442,130.514
443,128.5407
444,127.8935
445,127.3971
446,127.1489
447,126.7712
448,126.425
449,126.0911
450,125.7982
451,125.4975
452,125.2021
453,124.9067
454,124.6887
455,124.5946
456,124.614
457,124.7021
458,124.923
459,125.2124
460,125.6219
461,126.1602
462,126.7874
463,127.2593
464,127.3462
465,127.183
466,126.6198
467,126.1656
468,125.775
469,125.4662
470,124.5642
471,122.8365
472,121.1181
473,120.6048
474,120.8729
475,121.2502
476,121.5428
477,121.6486
478,120.324
479,118.5873
480,117.0503
481,115.0776
482,113.4682
483,110.6269
484,104.159
485,96.6634
486,88.3128
487,84.7826
488,83.7476
489,85.2113
490,87.8652
491,90.7284
492,92.3835
493,93.6041
494,94.1372
495,94.024
496,94.0065
497,94.0013
498,94.2683
499,95.0848
500,96.0047
501,97.1307
502,98.3038
503,99.6173
504,100.7335
505,101.6598
506,102.7165
507,103.883
508,105.0877
509,106.7335
510,107.6763
511,108.5734
512,109.3678
513,109.7002
514,109.971
515,110.2666
516,110.4438
517,110.5749
518,110.6818
519,110.7908
520,110.7999
521,110.7107
522,110.3221
523,110.3724
524,111.0197
525,111.8504
526,113.3059
527,113.8476
528,112.8049
529,111.1349
530,108.8148
531,106.9753
532,106.5659
533,107.9226
534,109.0613
535,110.171
536,111.2218
537,111.7793
538,112.2031
539,112.6197
540,113.1531
541,113.7229
542,114.3395
543,114.7904
544,113.1458
545,111.6243
546,109.3315
547,106.6546
548,104.7561
549,104.7725
550,106.5829
551,108.5487
552,110.4542
553,112.6999
554,114.4968
555,115.7221
556,116.694
557,117.6607
558,118.5212
559,119.2422
560,119.9428
561,119.0544
562,117.4402
563,116.6104
564,116.0367
565,115.6729
566,114.4293
567,112.8008
568,111.596
569,110.9805
570,110.8278
571,111.0701
572,111.3553
573,111.5131
574,111.497
575,111.433
576,111.3156
577,111.3073
578,111.814
579,112.3309
580,112.5994
581,112.6087
582,112.2682
583,111.2242
584,109.4837
585,106.2127
586,104.3472
587,103.4886
588,103.6117
589,102.5091
590,101.0973
591,97.2315
592,91.0159
593,84.5724
594,75.5447
595,64.357
596,57.3246
597,52.4866
598,49.8461
599,46.2268
600,45.2904
601,44.5988
602,44.4828
603,47.6113
604,51.5012
605,55.8469
606,60.3864
607,63.8163
608,66.7744
609,70.1828
610,73.4699
611,77.3957
612,81.5228
613,85.2979
614,88.5777
615,92.1439
616,95.1566
617,97.4644
618,100.2214
619,102.4284
620,103.4
621,104.718
622,105.686
623,106.6907
624,107.5736
625,106.8733
626,105.0622
627,102.7539
628,99.7813
629,98.3382
630,98.3049
631,98.9006
632,99.4719
633,99.9391
634,100.3903
635,100.9415
636,101.3925
637,101.7342
638,102.1384
639,102.5492
640,102.8728
641,103.2033
642,103.4932
643,103.7475
644,104.0128
645,104.423
646,104.984
647,105.4471
648,105.7715
649,105.9011
650,106.014
651,106.0858
652,106.1533
653,106.2257
654,106.2908
655,106.3584
656,106.422
657,106.4901
658,106.5584
659,106.6271
660,106.6982
661,106.7514
662,106.6138
663,106.6871
664,106.7569
665,106.8247
666,106.897
667,106.8072
668,106.717
669,106.6254
670,106.5382
671,106.4833
672,106.5515
673,106.6344
674,106.7235
675,106.8291
676,107.1131
677,107.3956
678,107.7031
679,107.9963
680,108.2926
681,108.6383
682,109.1372
683,109.9482
684,110.7511
685,111.6915
686,112.8222
687,114.157
688,115.2495
689,116.3641
690,117.3745
691,118.2133
692,119.1618
693,120.0804
694,120.8937
695,121.4345
696,122.08
697,122.6504
698,123.2237
699,123.6628
700,124.0034
701,124.3434
702,124.5652
703,124.727
704,124.7769
705,124.5848
706,124.3989
707,124.2633
708,124.1192
709,123.9955
710,123.8622
711,123.4187
712,122.6105
713,122.0256
714,121.8388
715,121.6495
716,121.462
717,121.2705
718,121.141
719,121.0304
720,120.9048
721,120.2013
722,119.5218
723,119.2906
724,119.3561
725,119.9128
726,120.4937
727,120.9448
728,121.4394
729,121.8845
730,122.4617
731,122.962
732,123.4234
733,123.7182
734,123.6133
735,123.2111
736,122.8373
737,122.5019
738,122.3169
739,122.3814
740,122.4462
741,122.5154
742,122.4771
743,122.4385
744,122.479
745,122.6464
746,122.8566
747,123.0519
748,123.2905
749,123.5197
750,123.8581
751,124.2252
752,124.9274
753,125.7407
754,126.4181
755,127.1418
756,127.8617
757,128.4809
758,128.9405
759,129.3806
760,129.6425
761,129.1444
762,128.945
763,128.7414
764,128.4752
765,128.3285
766,126.909
767,126.084
768,125.5234
769,125.0718
770,124.9328
771,124.9486
772,124.5497
773,124.245
774,123.9659
775,123.5255
776,122.8657
777,122.2751
778,121.8
779,121.6705
780,121.8293
781,121.924
782,121.6301
783,120.8643
784,120.2001
785,119.2823
786,117.7223
787,117.0075
788,116.6361
789,116.7596
790,117.0748
791,117.5139
792,118.3764
793,119.5376
794,121.2027
795,122.5976
796,123.9097
797,124.896
798,125.3838
799,125.8437
800,126.2991
801,126.6556
802,126.5874
803,126.4642
804,126.2876
805,126.1541
806,125.9831
807,124.9287
808,124.2016
809,123.7545
810,123.5521
811,123.0825
812,122.55
813,122.1631
814,121.1704
815,118.8289
816,116.4683
817,114.9165
818,114.0422
819,113.5636
820,113.4194
821,113.3306
822,113.2545
823,113.1423
824,113.0389
825,112.9087
826,112.8055
827,112.9674
828,113.237
829,113.6082
830,114.479
831,115.7202
832,117.3771
833,118.5426
834,119.787
835,120.8541
836,121.9209
837,122.8166
838,123.8249
839,124.7286
840,125.7397
841,126.7099
842,127.6685
843,128.4874
844,129.2878
845,129.2861
846,128.6616
847,128.0413
848,127.3931
849,126.5202
850,124.9002
851,123.0821
852,121.3602
853,118.5965
854,115.0724
855,112.1195
856,110.7895
857,111.31
858,112.326
859,113.182
860,113.9744
861,114.9486
862,116.0285
863,117.1777
864,118.0699
865,118.666
866,119.3007
867,119.9063
868,120.5924
869,121.2511
870,121.9578
871,122.8674
872,123.8207
873,124.6486
874,125.9026
875,126.9787
876,128.2664
877,129.57399999999998
878,129.0968
879,127.2545
880,125.3538
881,123.4655
882,122.8466
883,123.0773
884,123.3958
885,123.7903
886,124.3088
887,124.705
888,124.431
889,123.1219
890,121.4843
891,120.5585
892,120.4642
893,120.5405
894,120.8146
895,121.46
896,121.9374
897,122.3307
898,122.7141
899,123.0492
900,123.4391
901,123.8327
902,123.9721
903,124.0757
904,123.4534
905,122.7186
906,122.5773
907,121.7071
908,120.5941
909,118.8316
910,116.8652
911,114.879
912,112.6628
913,110.5774
914,107.9632
915,106.2173
916,104.8573
917,104.419
918,104.2941
919,104.1974
920,104.2818
921,102.7151
922,98.7395
923,93.6833
924,88.8729
925,86.2048
926,83.9528
927,82.5152
928,81.4619
929,81.7579
930,82.2496
931,82.5768
932,82.786
933,82.9992
934,82.6794
935,81.0908
936,79.3057
937,77.751
938,75.8211
939,74.0418
940,73.0277
941,71.9725
942,70.7438
943,67.4033
944,64.2177
945,57.1597
946,53.0272
947,53.0291
948,55.0643
949,57.3683
950,60.7879
951,64.4312
952,68.141
953,72.2337
954,74.9313
955,76.8767
956,77.6763
957,79.4601
958,80.3987
959,80.7163
960,81.0656
961,81.2338
962,81.3656
963,81.7467
964,82.6041
965,83.9842
966,85.9434
967,87.8183
968,89.1724
969,89.5455
970,89.9224
971,91.0064
972,92.5014
973,94.2504
974,95.3882
975,96.4955
976,95.8548
977,93.7194
978,91.0019
979,88.2599
980,85.8125
981,83.1305
982,81.7636
983,81.5341
984,81.3355
985,80.1772
986,79.1438
987,77.9986
988,76.9554
989,75.7612
990,73.3473
991,69.4828
992,65.3699
993,57.2682
994,46.5914
995,40.0513
996,40.4642
997,45.117
998,49.8618
999,53.0574
1000,56.0743
1001,58.5103
1002,59.7609
1003,59.1533
1004,58.6357
1005,56.9703
1006,52.8805
1007,51.2106
1008,49.0023
1009,45.6026
1010,42.3918
1011,36.4487
1012,30.1507
1013,24.5521
1014,20.8518
1015,20.2648
1016,19.7453
1017,17.0555
1018,12.393
1019,11.9558
1020,16.0962
1021,20.9945
1022,24.6877
1023,29.1927
1024,33.7091
1025,37.4935
1026,40.5244
1027,41.5567
1028,41.8812
1029,43.3848
1030,43.7834
1031,43.9226
1032,44.3379
1033,44.2672
1034,42.6244
1035,40.1456
1036,38.5747
1037,36.6693
1038,34.8819
1039,34.5551
1040,36.3925
1041,38.6741
1042,41.2658
1043,43.5199
1044,45.1338
1045,46.4832
1046,47.8081
1047,48.2679
1048,47.0218
1049,45.2389
1050,44.2584
1051,42.5536
1052,37.174
1053,30.2434
1054,23.4956
1055,20.7721
1056,20.2642
1057,19.7875
1058,23.7215
1059,32.3389
1060,35.5546
1061,35.4613
1062,35.0198
1063,32.8038
1064,27.6223
1065,23.1751
1066,18.709
1067,13.6661
1068,10.8356
1069,9.1189
1070,5.2363
1071,0.0
1072,0.0388
1073,0.0
